group1,group2,group3,id,x,y,z
3467.0921260835,175366.49578509,21456692911.629,0,85,0,0
5296.8685733259,335396.85273134,44151495139.293,1.8580968280467,85,1.8580968280467,0
7126.6450205684,495427.2096776,66846297366.957,3.7161936560935,85,3.7161936560935,0
9366.2411172766,671134.89425442,89671057223.775,5.5742904841402,85,5.5742904841402,0
11706.171047039,850680.77052182,112527633873.87,7.432387312187,85,7.432387312187,0
14568.069482176,1051212.3319916,135551173623.55,9.2904841402337,85,9.2904841402337,0
17768.407342324,1265350.8125767,158682970662.41,11.14858096828,85,11.14858096828,0
21517.890481377,1501476.1710788,181974730158.16,13.006677796327,85,13.006677796327,0
26057.677157381,1769243.9893303,205496699946.77,14.864774624374,85,14.864774624374,0
31028.120602956,2053823.213216,229126844478.04,16.722871452421,85,16.722871452421,0
37586.881596705,2400405.0630093,253155951371.47,18.580968280467,85,18.580968280467,0
44195.546722502,2748866.8509957,277195480150.55,20.439065108514,85,20.439065108514,0
53754.993099529,3208487.4978951,301851244570.65,22.297161936561,85,22.297161936561,0
63314.439476556,3668108.1447946,326507008990.75,24.155258764608,85,24.155258764608,0
76507.528326658,4259109.482909,351777192005.85,26.013355592654,85,26.013355592654,0
90498.477891263,4878958.8689371,377182286604.26,27.871452420701,85,27.871452420701,0
108556.69454576,5639537.1163642,403133233533.01,29.729549248748,85,29.729549248748,0
129073.19557129,6485172.8613408,429414097387.04,31.587646076795,85,31.587646076795,0
153683.52278641,7466129.0661192,456124389452.45,33.445742904841,85,33.445742904841,0
183796.21563107,8628964.6699012,483411860645.95,35.303839732888,85,35.303839732888,0
217151.66858861,9894094.4389251,510962032525.05,37.161936560935,85,37.161936560935,0
261367.26479947,11501811.772195,539392000312.31,39.020033388982,85,39.020033388982,0
306272.04656305,13130262.139616,567864679962.08,40.878130217028,85,40.878130217028,0
371207.66062476,15361307.74208,597578758465.94,42.736227045075,85,42.736227045075,0
436143.27468647,17592353.344545,627292836969.79,44.594323873122,85,44.594323873122,0
526542.61150109,20553509.620153,658205032148.49,46.452420701169,85,46.452420701169,0
621915.81564717,23657279.513604,689351257262.48,48.310517529215,85,48.310517529215,0
745899.25623017,27542489.18747,721513234405.82,50.168614357262,85,50.168614357262,0
885981.94959584,31867422.475194,754246784899.19,52.026711185309,85,52.026711185309,0
1055172.6187117,36949284.956832,787756179930.47,53.884808013356,85,53.884808013356,0
1260926.1710121,42981935.426392,822240122743.85,55.742904841402,85,55.742904841402,0
1490462.9091982,49603059.513008,857197994937.56,57.601001669449,85,57.601001669449,0
1792673.9321542,58022382.521808,893604053211.62,59.459098497496,85,59.459098497496,0
2101953.4950312,66608016.5867,930115049976.95,61.317195325543,85,61.317195325543,0
2545839.2553983,78360711.89927,968624390309.42,63.175292153589,85,63.175292153589,0
2989725.0157655,90113407.21184,1007133730641.9,65.033388981636,85,65.033388981636,0
3611154.1571869,105835491.52252,1047600945768.6,66.891485809683,85,66.891485809683,0
4263126.4681161,122240438.35554,1088404978304.9,68.74958263773,85,68.74958263773,0
5115756.6909912,142904965.93113,1130848501356.9,70.607679465776,85,70.607679465776,0
6073356.0069219,165797785.04533,1174149682254.8,72.465776293823,85,72.465776293823,0
7237385.2990428,192847859.82869,1218697776177.3,74.32387312187,85,74.32387312187,0
8643871.0427012,224780720.9025,1264710396293.9,76.181969949917,85,76.181969949917,0
10223881.342208,260025783.65056,1311496373622.4,78.040066777963,85,78.040066777963,0
12289661.268407,304543118.91913,1360447309347.1,79.89816360601,85,79.89816360601,0
14419857.714635,350224680.92188,1409609687511.3,81.756260434057,85,81.756260434057,0
17453962.81825,412242962.50702,1461739078665.5,83.614357262103,85,83.614357262103,0
20488067.921865,474261244.09216,1513868469819.7,85.47245409015,85,85.47245409015,0
24759282.657486,557426926.73545,1568983545162.3,87.330550918197,85,87.330550918197,0
29215598.347053,643756762.34308,1624545349701.1,89.188647746244,85,89.188647746244,0
35078083.930174,752794509.57855,1682598275591.3,91.04674457429,85,91.04674457429,0
41623258.810331,872856848.00847,1741860629938.2,92.904841402337,85,92.904841402337,0
49630355.820822,1015192780.8071,1803020859567.3,94.762938230384,85,94.762938230384,0
59243558.837783,1181999068.7355,1866266144772.9,96.621035058431,85,96.621035058431,0
70117744.389516,1366905708.0615,1930708868645.7,98.479131886477,85,98.479131886477,0
84237218.58482,1598395756.1306,1998233343455.1,100.33722871452,85,100.33722871452,0
98907085.565269,1837317553.2378,2066139359134.5,102.19532554257,85,102.19532554257,0
119645472.93683,2158180323.7663,2138252167874.7,104.05342237062,85,104.05342237062,0
140383860.30838,2479043094.2949,2210364976614.9,105.91151919866,85,105.91151919866,0
169740934.18894,2909191881.0808,2286829060498.2,107.76961602671,85,107.76961602671,0
200201683.41128,3353335408.39,2363850351686.4,109.62771285476,85,109.62771285476,0
240514003.13158,3914570890.061,2444483819092.9,111.4858096828,85,111.4858096828,0
285256387.12511,4528460401.2403,2526741613586.9,113.34390651085,85,113.34390651085,0
340344848.3672,5257378637.7157,2611744937855.3,115.2020033389,85,115.2020033389,0
406067525.90845,6104529158.3729,2699570255114.4,117.06010016694,85,117.06010016694,0
480928086.16407,7046500162.5742,2789142980463.6,118.91819699499,85,118.91819699499,0
577474162.3475,8213493873.9446,2882862557677.3,120.77629382304,85,120.77629382304,0
678539439.03585,9424144463.9736,2977201416580.6,122.63439065109,85,122.63439065109,0
820374680.49285,11028645559.836,3077127124892.1,124.49248747913,85,124.49248747913,0
962209921.94985,12633146655.697,3177052833203.7,126.35058430718,85,126.35058430718,0
1164149519.6619,14776678680.623,3282837975148.1,128.20868113523,85,128.20868113523,0
1372537281.2965,16978039455.518,3389251733567.4,130.06677796327,85,130.06677796327,0
1650025221.2391,19752905532.829,3500411929453.7,131.92487479132,85,131.92487479132,0
1956227928.8414,22766093303.566,3613544520381.7,133.78297161937,85,133.78297161937,0
2335730470.1202,26340290138.452,3730178724196.3,135.64106844741,85,135.64106844741,0
2785724876.8597,30454004916.13,3850180401197.7,137.49916527546,85,137.49916527546,0
3301916733.9938,35033053179.991,3972341913648.4,139.35726210351,85,139.35726210351,0
3963343664.8967,40633028122.905,4099242035500.9,141.21535893155,85,141.21535893155,0
4660974895.7127,46465668409.752,4226928197806.1,143.0734557596,85,143.0734557596,0
5633391573.2693,54064205306.317,4360580294474.5,144.93155258765,85,144.93155258765,0
6605808250.8258,61662742202.882,4494232391143,146.78964941569,85,146.78964941569,0
7999103735.054,71720831065.667,4633729959534.9,148.64774624374,85,148.64774624374,0
9429125426.0785,81993542315.481,4773737608263.2,150.50584307179,85,150.50584307179,0
11346259905.985,94838684761.82,4917801667552,152.36393989983,85,152.36393989983,0
13449955841.62,108669053873.81,5063419309248,154.22203672788,85,154.22203672788,0
16076039665.598,124974075049.47,5211344512106.5,156.08013355593,85,156.08013355593,0
19172123376.744,143505576234.86,5361345860890.7,157.93823038397,85,157.93823038397,0
22750610252.745,164068899556.05,5512172716160.9,159.79632721202,85,159.79632721202,0
27309758216.592,188762645418.33,5664677715663.1,161.65442404007,85,161.65442404007,0
32156188823.949,214520614021.23,5817148706588.5,163.51252086811,85,163.51252086811,0
38874588926.207,247213190583.27,5969398093389.7,165.37061769616,85,165.37061769616,0
45592989028.466,279905767145.31,6121647480191,167.22871452421,85,167.22871452421,0
55299576964.958,322203369455,6269978144280.4,169.08681135225,85,169.08681135225,0
65209212109.395,365153632764.75,6418042531365.3,170.9449081803,85,170.9449081803,0
78614362668.526,417685364223.31,6558963993947.1,172.80300500835,85,172.80300500835,0
93249585283.514,473588814820.73,6697371861025.5,174.66110183639,85,174.66110183639,0
111695471099.44,538196314807.54,6826470116373.5,176.51919866444,85,176.51919866444,0
133348155776.27,610128559647.28,6947734026171.1,178.37729549249,85,178.37729549249,0
158625148287.71,688741821407.36,7059558813781.6,180.23539232053,85,180.23539232053,0
190742064863.59,779963738528.4,7153569750598.8,182.09348914858,85,182.09348914858,0
225211024974.79,874521879044.13,7241473538081,183.95158597663,85,183.95158597663,0
273041943540.7,988033103431.79,7294682612448.6,185.80968280467,85,185.80968280467,0
320872862106.6,1101544327819.5,7347891686816.2,187.66777963272,85,187.66777963272,0
391476373100.42,1238049206995.2,7344861840488.1,189.52587646077,85,189.52587646077,0
463202871633.13,1375687974984,7339058677624.2,191.38397328881,85,191.38397328881,0
563097287859.06,1530862263335.8,7269228398748.3,193.24207011686,85,193.24207011686,0
672066652159.49,1691686026330.5,7178770299261,195.10016694491,85,195.10016694491,0
817423963134.73,1861566302339.3,7016080758895.1,196.95826377295,85,196.95826377295,0
991411656763.56,2038572328954.9,6796558833606.5,198.816360601,85,198.816360601,0
1166833800869.4,2210970129356.7,6581793303011.4,200.67445742905,85,200.67445742905,0
1344773334550.2,2375280720883.4,6375375009638.3,202.5325542571,85,202.5325542571,0
1478502800357.1,2535402141637.4,6235228099693.6,204.39065108514,85,204.39065108514,0
1593603161180.3,2690563630789.7,6126778738440.4,206.24874791319,85,206.24874791319,0
1692338359488.1,2840380962263.6,6047054709477.1,208.10684474124,85,208.10684474124,0
1775170709520.6,2982935119784.3,5997025470240.6,209.96494156928,85,209.96494156928,0
1845263245337.3,3117071966217.1,5972874316280.8,211.82303839733,85,211.82303839733,0
1908060710029.6,3245197171080.7,5964484586733,213.68113522538,85,213.68113522538,0
1964462965570.6,3367407762557.7,5970418088420.1,215.53923205342,85,215.53923205342,0
2013889530839.3,3481556783860.3,5993218117303.4,217.39732888147,85,217.39732888147,0
2059247112347.1,3589762069700.5,6026790859331.1,219.25542570952,85,219.25542570952,0
2101665563482.3,3693171420379.6,6068512173672.9,221.11352253756,85,221.11352253756,0
2141469432045.5,3791825158591.9,6117839674790.2,222.97161936561,85,222.97161936561,0
2178493646406.8,3884234122211.9,6176092436951.1,224.82971619366,85,224.82971619366,0
2214240220997.2,3973147989665.2,6238870881676.1,226.6878130217,85,226.6878130217,0
2248866652483,4058762737404,6305769989172.5,228.54590984975,85,228.54590984975,0
2282400074200.4,4140643225867.2,6377022706126.4,230.4040066778,85,230.4040066778,0
2315125821599.9,4219094189492.7,6451901907533.8,232.26210350584,85,232.26210350584,0
2347400395390.2,4295301248978.5,6528994546881.9,234.12020033389,85,234.12020033389,0
2379293022315.8,4369412633516.8,6608070686943.3,235.97829716194,85,235.97829716194,0
2410800214982.7,4440890367219,6689422647225.7,237.83639398998,85,237.83639398998,0
2442115282433.3,4510646368382.6,6772105523698.1,239.69449081803,85,239.69449081803,0
2473297177677.1,4579031415573,6855786798249.4,241.55258764608,85,241.55258764608,0
2504369048267.7,4646078994868,6940380459906.3,243.41068447412,85,243.41068447412,0
2535348071764.4,4711523922589.7,7025918634379.1,245.26878130217,85,245.26878130217,0
2566292173623.4,4776093914901.4,7111894197394,247.12687813022,85,247.12687813022,0
2597208527537.5,4839849796039.3,7198246152484.1,248.98497495826,85,248.98497495826,0
2628103450080.8,4902695012442.5,7284952119346.9,250.84307178631,85,250.84307178631,0
2658987805039.9,4964754099190.7,7371875410281.7,252.70116861436,85,252.70116861436,0
2689867076635.8,5026295405909.4,7458898029334,254.5592654424,85,254.5592654424,0
2720742457866.6,5087356778666.2,7545987422207.6,256.41736227045,85,256.41736227045,0
2751613230532,5147814227750.5,7633086706401.9,258.2754590985,85,258.2754590985,0
2782479625682.3,5207890986784.5,7720134096444.9,260.13355592654,85,260.13355592654,0
2813341360906.4,5267656256694.1,7807113878045.9,261.99165275459,85,261.99165275459,0
2844197257899.5,5327111326064.7,7893998397567.6,263.84974958264,85,263.84974958264,0
2875043044410.3,5386200365440.8,7980700773259.4,265.70784641068,85,265.70784641068,0
2905881798487.2,5445079683799.2,8067259009454.6,267.56594323873,85,267.56594323873,0
2936713893114.8,5503760647125.3,8153663907458.5,269.42404006678,85,269.42404006678,0
2967538543371.9,5562208655164.3,8239849882486.6,271.28213689482,85,271.28213689482,0
2998361367064.7,5620448315391,8325787933273.9,273.14023372287,85,273.14023372287,0
3029190304713.4,5678538733150.8,8411520484006.5,274.99833055092,85,274.99833055092,0
3060028072518.9,5736484947755.3,8497040608996.2,276.85642737896,85,276.85642737896,0
3090872916967.9,5794224801854.4,8582237975542.2,278.71452420701,85,278.71452420701,0
3121471759431.8,5851565989757.2,8666999785866.9,280.57262103506,85,280.57262103506,0
3151957427428.7,5908723769244.7,8751561216332.1,282.43071786311,85,282.43071786311,0
3182443095425.6,5965881548732.1,8836122646797.4,284.28881469115,85,284.28881469115,0
3212928763422.5,6023039328219.6,8920684077262.6,286.1469115192,85,286.1469115192,0
3243414431419.5,6080197107707.1,9005245507727.9,288.00500834725,85,288.00500834725,0
3273900099416.4,6137354887194.6,9089806938193.1,289.86310517529,85,289.86310517529,0
3304093975159.2,6193988102815.3,9173650799561.4,291.72120200334,85,291.72120200334,0
3334083429454.7,6250253823743.1,9256991952200.1,293.57929883139,85,293.57929883139,0
3364072883750.3,6306519544670.8,9340333104838.8,295.43739565943,85,295.43739565943,0
3394062338045.8,6362785265598.5,9423674257477.5,297.29549248748,85,297.29549248748,0
3424051792341.3,6419050986526.2,9507015410116.2,299.15358931553,85,299.15358931553,0
3454041246636.9,6475316707454,9590356562754.9,301.01168614357,85,301.01168614357,0
3483806769411.3,6531169550649.8,9673037842858.4,302.86978297162,85,302.86978297162,0
3513340308563,6586594669908,9755035522812.7,304.72787979967,85,304.72787979967,0
3542873847714.7,6642019789166.1,9837033202767.1,306.58597662771,85,306.58597662771,0
3572407386866.4,6697444908424.2,9919030882721.4,308.44407345576,85,308.44407345576,0
3601940926018.1,6752870027682.4,10001028562676,310.30217028381,85,310.30217028381,0
3631474465169.7,6808295146940.5,10083026242630,312.16026711185,85,312.16026711185,0
3660828400531.5,6863401623928.2,10164469622213,314.0183639399,85,314.0183639399,0
3689906440618.3,6918018624069,10245061522809,315.87646076795,85,315.87646076795,0
3718984480705.1,6972635624209.8,10325653423405,317.73455759599,85,317.73455759599,0
3748062520791.8,7027252624350.5,10406245324001,319.59265442404,85,319.59265442404,0
3777140560878.6,7081869624491.3,10486837224596,321.45075125209,85,321.45075125209,0
3806218600965.4,7136486624632,10567429125192,323.30884808013,85,323.30884808013,0
3835167916321.4,7190875137907.2,10647574665488,325.16694490818,85,325.16694490818,0
3863813170675.7,7244723941798.1,10726665857030,327.02504173623,85,327.02504173623,0
3892458425030.1,7298572745689.1,10805757048571,328.88313856427,85,328.88313856427,0
3921103679384.4,7352421549580,10884848240112,330.74123539232,85,330.74123539232,0
3949748933738.7,7406270353471,10963939431653,332.59933222037,85,332.59933222037,0
3978394188093.1,7460119157361.9,11043030623194,334.45742904841,85,334.45742904841,0
4006981738992.5,7513820892806.4,11121771970790,336.31552587646,85,336.31552587646,0
4035339288485,7566936425056.1,11199118868093,338.17362270451,85,338.17362270451,0
4063696837977.5,7620051957305.8,11276465765397,340.03171953255,85,340.03171953255,0
4092054387470.1,7673167489555.4,11353812662701,341.8898163606,85,341.8898163606,0
4120411936962.6,7726283021805.1,11431159560004,343.74791318865,85,343.74791318865,0
4148769486455.1,7779398554054.8,11508506457308,345.60601001669,85,345.60601001669,0
4177111917786.1,7832426332440.3,11585647626497,347.46410684474,85,347.46410684474,0
4205323674982,7884695608524.7,11661010580567,349.32220367279,85,349.32220367279,0
4233535432177.8,7936964884609,11736373534636,351.18030050083,85,351.18030050083,0
4261747189373.7,7989234160693.4,11811736488705,353.03839732888,85,353.03839732888,0
4289958946569.5,8041503436777.8,11887099442774,354.89649415693,85,354.89649415693,0
4318170703765.4,8093772712862.2,11962462396843,356.75459098497,85,356.75459098497,0
4346376004741,8146033829267.2,12037816491565,358.61268781302,85,358.61268781302,0
4373642265471.1,8197108141777.9,12111882017483,360.47078464107,85,360.47078464107,0
4400908526201.3,8248182454288.5,12185947543401,362.32888146912,85,362.32888146912,0
4428174786931.4,8299256766799.2,12260013069319,364.18697829716,85,364.18697829716,0
4455441047661.5,8350331079309.9,12334078595237,366.04507512521,85,366.04507512521,0
4482707308391.6,8401405391820.6,12408144121155,367.90317195326,85,367.90317195326,0
4509973569121.8,8452479704331.2,12482209647073,369.7612687813,85,369.7612687813,0
4536479862737,8502361465602,12554900119405,371.61936560935,85,371.61936560935,0
4562910958252.2,8552125224941,12627454531353,373.4774624374,85,373.4774624374,0
4589342053767.3,8601888984280.1,12700008943302,375.33555926544,85,375.33555926544,0
4615773149282.5,8651652743619.2,12772563355250,377.19365609349,85,377.19365609349,0
4642204244797.6,8701416502958.2,12845117767199,379.05175292154,85,379.05175292154,0
4668635340312.7,8751180262297.3,12917672179147,380.90984974958,85,380.90984974958,0
4694506039308.1,8799922042876.4,12988801916075,382.76794657763,85,382.76794657763,0
4720247918228.4,8848428898048.4,13059604158565,384.62604340568,85,384.62604340568,0
4745989797148.6,8896935753220.3,13130406401055,386.48414023372,85,386.48414023372,0
4771731676068.9,8945442608392.2,13201208643546,388.34223706177,85,388.34223706177,0
4797473554989.2,8993949463564.1,13272010886036,390.20033388982,85,390.20033388982,0
4823215433909.4,9042456318736,13342813128526,392.05843071786,85,392.05843071786,0
4848494845434.5,9090130318045.7,13412270581239,393.91652754591,85,393.91652754591,0
4873591022042,9137474330253.8,13481195212728,395.77462437396,85,395.77462437396,0
4898687198649.5,9184818342461.9,13550119844217,397.632721202,85,397.632721202,0
4923783375257,9232162354670,13619044475705,399.49081803005,85,399.49081803005,0
4948879551864.5,9279506366878.1,13687969107194,401.3489148581,85,401.3489148581,0
4973975728472,9326850379086.2,13756893738682,403.20701168614,85,403.20701168614,0
4998714840200.9,9373550068785.6,13824551152391,405.06510851419,85,405.06510851419,0
5023234506577.6,9419853770000.9,13891429757907,406.92320534224,85,406.92320534224,0
5047754172954.2,9466157471216.2,13958308363424,408.78130217028,85,408.78130217028,0
5072273839330.8,9512461172431.6,14025186968941,410.63939899833,85,410.63939899833,0
5096793505707.4,9558764873646.9,14092065574458,412.49749582638,85,412.49749582638,0
5121313172084,9605068574862.2,14158944179974,414.35559265442,85,414.35559265442,0
5145685528484,9650888030953.9,14224522234684,416.21368948247,85,416.21368948247,0
5169923255138.4,9696264925045.9,14288911688129,418.07178631052,85,418.07178631052,0
5194160981792.7,9741641819137.9,14353301141574,419.92988313856,85,419.92988313856,0
5218398708447,9787018713229.8,14417690595019,421.78797996661,85,421.78797996661,0
5242636435101.3,9832395607321.8,14482080048464,423.64607679466,85,423.64607679466,0
5266874161755.6,9877772501413.7,14546469501910,425.5041736227,85,425.5041736227,0
5291109837146.8,9922681040232.5,14609616076019,427.36227045075,85,427.36227045075,0
5315342744322.3,9966957525418.3,14671085362726,429.2203672788,85,429.2203672788,0
5339575651497.9,10011234010604,14732554649432,431.07846410684,85,431.07846410684,0
5363808558673.5,10055510495790,14794023936139,432.93656093489,85,432.93656093489,0
5388041465849.1,10099786980976,14855493222846,434.79465776294,85,434.79465776294,0
5412274373024.6,10144063466161,14916962509553,436.65275459098,85,436.65275459098,0
5436008769904.9,10187759657670,14977922942824,438.51085141903,85,438.51085141903,0
5458725301134.4,10230270997017,15037844391670,440.36894824708,85,440.36894824708,0
